#  Im SED of Coleman, Wu, and Weedman (1980)
#  Extended below 1400 A and beyond 10000 A by
#  Bolzonella, Miralles, and Pello (2000) using evolutionary models
#  of Bruzual and Charlot (1993)
#
#  Obtained from ZPHOT code at
#  'http://webast.ast.obs-mip.fr/hyperz/zphot_src_1.1.tar.gz'
#
#  Truncated to wavelengths less than 22050 Angstroms, and thinned by
#  galsim.utilities.thin_tabulated_values to a relative error of 1.e-3
#
#  Angstroms     Flux/A
#
      91.00       3.69508
     186.00      62.29149
     220.00      71.74696
     252.00      76.15952
     284.00     116.10170
     318.00     122.29070
     328.00     130.19900
     338.00     126.41680
     348.00     121.54580
     357.00     171.86030
     366.00     275.18280
     385.00     213.29250
     395.00     325.21090
     405.00     407.33020
     414.00     402.00070
     422.00     361.14170
     430.00     342.86110
     441.00     399.19270
     451.00     404.17840
     460.00     350.08160
     470.00     354.03570
     480.00     397.70280
     490.00     328.13350
     500.00     408.76280
     506.00     339.70930
     512.00     596.55420
     520.00     561.59760
     530.00     509.33470
     540.00     414.55070
     550.00     404.80870
     560.00     529.21980
     570.00     588.53140
     580.00     563.71800
     590.00     568.87550
     600.00     463.54720
     610.00     457.93130
     620.00     574.20490
     630.00     535.52340
     640.00     578.21630
     650.00     550.59490
     658.00     498.10270
     665.00     558.56040
     675.00     582.22770
     685.00     484.52120
     695.00     565.72360
     705.00     441.71370
     716.00     572.88680
     726.00     570.07890
     745.00     541.76980
     755.00     532.48620
     765.00     474.83650
     775.00     523.08810
     785.00     479.13450
     795.00     508.30310
     825.00     512.20000
     835.00     393.51950
     845.00     489.33490
     895.00     482.34360
     915.00     479.82210
     935.00    2067.02300
     945.00    2952.97200
     955.00    3543.22200
     965.00    3845.79800
     975.00    1157.57900
     985.00    2964.43300
     995.00    2917.44200
    1005.00    3839.49400
    1015.00    3833.76300
    1025.00    2304.84300
    1035.00    3075.03300
    1045.00    4637.19200
    1055.00    4418.28300
    1065.00    3582.19000
    1075.00    4021.72700
    1085.00    3368.43900
    1095.00    4089.34700
    1105.00    3829.17900
    1115.00    3663.56500
    1125.00    3174.17300
    1135.00    3877.88900
    1145.00    3567.86400
    1155.00    3627.46200
    1165.00    3601.67500
    1175.00    2371.31700
    1185.00    3421.73400
    1195.00    2731.77100
    1215.00    1658.43200
    1225.00    2601.11400
    1235.00    3346.09000
    1245.00    3460.12900
    1255.00    3290.50400
    1265.00    3040.07700
    1275.00    3490.50100
    1285.00    3531.76100
    1295.00    2882.48600
    1305.00    2907.70000
    1315.00    3387.92400
    1325.00    3184.48800
    1335.00    2903.68900
    1345.00    3213.14100
    1355.00    3101.39400
    1365.00    2814.29200
    1375.00    2828.61800
    1385.00    2803.40400
    1395.00    2180.48900
    1405.00    2207.99600
    1415.00    2544.95400
    1425.00    2501.97500
    1435.00    2551.83100
    1442.00    2612.00200
    1455.00    2506.55900
    1465.00    2327.19200
    1475.00    2334.64200
    1500.00    2310.00000
    1600.00    2215.00000
    1700.00    2121.00000
    1800.00    2026.00000
    1900.00    1908.00000
    2100.00    1643.00000
    2200.00    1523.00000
    2300.00    1417.00000
    2400.00    1320.00000
    2500.00    1232.00000
    2600.00    1154.00000
    2700.00    1086.00000
    2800.00    1029.00000
    2900.00     980.00000
    3020.00     934.00000
    3140.00     901.00000
    3260.00     880.00000
    3420.00     867.00000
    3460.00     869.00000
    3500.00     876.00000
    3580.00     813.00000
    3620.00     813.00000
    3660.00     811.00000
    3700.00    1206.00000
    3740.00    1559.00000
    3780.00     930.00000
    3820.00     972.00000
    3860.00    1094.00000
    3900.00    1026.00000
    3940.00    1011.00000
    3980.00    1021.00000
    4020.00    1103.00000
    4060.00    1086.00000
    4100.00    1058.00000
    4140.00    1030.00000
    4180.00    1071.00000
    4220.00    1038.00000
    4260.00    1018.00000
    4300.00     950.00000
    4340.00    1032.00000
    4380.00    1002.00000
    4420.00     987.00000
    4460.00     996.00000
    4540.00     987.00000
    4580.00     984.00000
    4620.00     956.00000
    4660.00     974.00000
    4700.00     941.00000
    4740.00     927.00000
    4780.00     922.00000
    4820.00     896.00000
    4860.00    1189.00000
    4900.00     894.00000
    4940.00    1052.00000
    4980.00    1325.00000
    5020.00    1584.00000
    5060.00     843.00000
    5100.00     857.00000
    5140.00     801.00000
    5220.00     809.00000
    5260.00     787.00000
    5300.00     827.00000
    5340.00     777.00000
    5380.00     774.00000
    5420.00     742.00000
    5460.00     744.00000
    5500.00     754.00000
    5540.00     740.00000
    5660.00     720.00000
    5860.00     703.00000
    5980.00     693.00000
    6180.00     669.00000
    6420.00     641.00000
    6780.00     606.00000
    7300.00     565.00000
    7780.00     534.00000
    8000.00     522.00000
    8200.00     511.00000
    8600.00     492.00000
    9300.00     464.00000
    9600.00     453.00000
    9900.00     444.00000
   10000.00     444.00000
   10025.00     431.77500
   10075.00     420.75320
   10125.00     429.75350
   10225.00     421.81200
   10375.00     405.59220
   10475.00     399.52780
   10575.00     391.15320
   10675.00     378.73560
   10725.00     377.58050
   10775.00     372.76750
   10875.00     363.71900
   10925.00     355.15190
   11025.00     357.55840
   11125.00     351.20520
   11175.00     346.29590
   11325.00     334.79280
   11425.00     326.80330
   11525.00     326.80330
   11575.00     320.78700
   11675.00     313.80810
   11775.00     308.27320
   11825.00     305.48160
   11925.00     303.60460
   11975.00     291.57200
   12075.00     291.81270
   12225.00     287.24030
   12275.00     284.30440
   12425.00     276.74800
   12675.00     264.23410
   12775.00     262.45330
   12825.00     247.77370
   12875.00     255.61890
   12925.00     251.33530
   13075.00     250.75770
   13175.00     244.26020
   13225.00     243.87510
   13275.00     238.86960
   13475.00     236.02990
   13625.00     228.61790
   13675.00     228.90670
   13925.00     223.61240
   14125.00     216.53720
   14225.00     214.22700
   14325.00     213.55320
   14425.00     206.28550
   14525.00     207.10370
   14620.00     207.05560
   14775.00     202.91640
   15025.00     198.68100
   15225.00     197.47770
   15425.00     195.93760
   15525.00     192.32780
   15575.00     181.93170
   15675.00     185.20450
   15725.00     189.72880
   15775.00     174.27900
   15925.00     180.24710
   15975.00     175.00100
   16050.00     175.91540
   16150.00     174.90470
   16250.00     171.68000
   16350.00     176.34860
   16450.00     163.40160
   16550.00     170.76550
   16650.00     160.85070
   16750.00     163.83480
   16850.00     155.17140
   16950.00     159.79190
   17050.00     154.01630
   17250.00     150.50280
   17350.00     143.86080
   17450.00     146.07480
   17550.00     142.03190
   17650.00     141.64680
   17950.00     134.71610
   18050.00     130.67320
   18150.00     129.27740
   18350.00     124.80130
   18450.00     122.58730
   18650.00     117.91870
   18750.00     115.60850
   18950.00     109.92910
   19050.00     112.62440
   19150.00     109.92910
   19250.00     108.82210
   19350.00     105.26050
   19650.00     101.21760
   19850.00      97.99284
   19950.00      96.59707
   20050.00      96.35642
   20250.00      91.73593
   20550.00      88.84813
   20750.00      86.05658
   20850.00      84.37203
   21550.00      76.23804
   21850.00      72.67642
   22050.00      69.74049
